time (s),q1,q2,q3,q1dot,d2dot,q3dot,fL,fR,
0,0.644,-1.425,0.08,-0.178,0.161,0.178,10,10
0.02,0.64022,-1.4211,0.08356,-0.19978,0.23058,0.178,10,9.7597
0.04,0.63601,-1.4158,0.086976,-0.22223,0.29688,0.16358,10,9.5493
0.06,0.63133,-1.4092,0.089977,-0.24527,0.36032,0.13654,10,9.4041
0.08,0.62619,-1.4014,0.09235,-0.26884,0.42176,0.10079,10,9.3065
0.1,0.62058,-1.3924,0.09395,-0.2928,0.48186,0.059178,10,9.2436
0.12,0.61448,-1.3822,0.09468,-0.31698,0.5411,0.013791,10,9.2061
0.14,0.6079,-1.3707,0.094479,-0.34119,0.59984,-0.033844,10,9.1872
0.16,0.60083,-1.3582,0.093315,-0.3652,0.65834,-0.082613,10,9.1819
0.18,0.59329,-1.3444,0.091172,-0.38878,0.71681,-0.1317,10,9.1866
0.2,0.58529,-1.3295,0.08805,-0.41169,0.7754,-0.1805,9.6163,9.1987
0.22,0.57683,-1.3134,0.084189,-0.43328,0.82914,-0.20556,9.3303,9.1197
0.24,0.56796,-1.2964,0.079951,-0.45345,0.87811,-0.21819,9.1041,8.9986
0.26,0.55871,-1.2784,0.075524,-0.4722,0.92255,-0.22453,8.9111,8.8613
0.28,0.54909,-1.2595,0.071004,-0.48954,0.96268,-0.22752,8.7384,8.7203
0.3,0.53914,-1.2399,0.066443,-0.50553,0.99871,-0.2286,8.5796,8.5813
0.32,0.52888,-1.2196,0.061872,-0.5202,1.0308,-0.2285,8.4315,8.4469
0.34,0.51834,-1.1987,0.057311,-0.5336,1.0593,-0.22757,8.2924,8.3183
0.36,0.50754,-1.1773,0.052775,-0.54579,1.0842,-0.22602,8.1615,8.1959
0.38,0.49651,-1.1554,0.048275,-0.5568,1.1059,-0.22396,8.0382,8.0797
0.4,0.48528,-1.1331,0.043821,-0.56669,1.1243,-0.22147,7.9219,7.9698
0.42,0.47385,-1.1104,0.03942,-0.57551,1.1398,-0.2186,7.8124,7.8659
0.44,0.46226,-1.0875,0.03508,-0.58329,1.1525,-0.21539,7.7094,7.7678
0.46,0.45053,-1.0643,0.030808,-0.59009,1.1626,-0.21189,7.6127,7.6755
0.48,0.43867,-1.041,0.026607,-0.59594,1.1701,-0.20812,7.5218,7.5885
0.5,0.4267,-1.0176,0.022485,-0.60088,1.1754,-0.20412,7.4367,7.5069
0.52,0.41464,-0.99403,0.018445,-0.60496,1.1784,-0.19991,7.3571,7.4303
0.54,0.4025,-0.97045,0.014491,-0.6082,1.1793,-0.19551,7.2827,7.3585
0.56,0.39032,-0.94687,0.010626,-0.61065,1.1783,-0.19096,7.2133,7.2914
0.58,0.37808,-0.92333,0.0068536,-0.61234,1.1755,-0.18628,7.1487,7.2288
0.6,0.36583,-0.89987,0.0031761,-0.6133,1.171,-0.18147,7.0888,7.1705
0.62,0.35356,-0.87651,-0.0004043,-0.61356,1.1649,-0.17657,7.0332,7.1163
0.64,0.34129,-0.85329,-0.0038858,-0.61315,1.1574,-0.17158,6.9818,7.0661
0.66,0.32903,-0.83023,-0.0072668,-0.61211,1.1485,-0.16652,6.9344,7.0196
0.68,0.31681,-0.80736,-0.010546,-0.61045,1.1383,-0.16141,6.8908,6.9767
0.7,0.30462,-0.78471,-0.013723,-0.6082,1.127,-0.15626,6.8509,6.9373
0.72,0.29248,-0.76229,-0.016796,-0.6054,1.1146,-0.15108,6.8145,6.9012
0.74,0.28041,-0.74013,-0.019766,-0.60205,1.1013,-0.14587,6.7813,6.8682
0.76,0.2684,-0.71825,-0.022631,-0.59819,1.087,-0.14066,6.7512,6.8381
0.78,0.25648,-0.69666,-0.025392,-0.59384,1.072,-0.13545,6.7242,6.811
0.8,0.24465,-0.67538,-0.028049,-0.58902,1.0562,-0.13024,6.6999,6.7865
0.82,0.23293,-0.65442,-0.030602,-0.58375,1.0397,-0.12504,6.6784,6.7646
0.84,0.22131,-0.6338,-0.033051,-0.57804,1.0227,-0.11987,6.6593,6.7452
0.86,0.20981,-0.61352,-0.035397,-0.57192,1.0051,-0.11472,6.6427,6.728
0.88,0.19843,-0.5936,-0.03764,-0.56541,0.98704,-0.1096,6.6284,6.7131
0.9,0.18719,-0.57404,-0.039781,-0.55853,0.96859,-0.10452,6.6161,6.7002
0.92,0.17609,-0.55486,-0.041821,-0.55128,0.94979,-0.099477,6.606,6.6892
0.94,0.16514,-0.53605,-0.043761,-0.5437,0.9307,-0.09448,6.5977,6.6802
0.96,0.15435,-0.51763,-0.045601,-0.53579,0.91136,-0.089531,6.5912,6.6728
0.98,0.14371,-0.4996,-0.047342,-0.52757,0.89182,-0.084634,6.5864,6.6671
1,0.13325,-0.48196,-0.048987,-0.51906,0.87213,-0.079791,6.5832,6.6629
1.02,0.12295,-0.46472,-0.050535,-0.51028,0.85233,-0.075006,6.5815,6.6602
1.04,0.11284,-0.44787,-0.051987,-0.50123,0.83245,-0.070281,6.5811,6.6588
1.06,0.10291,-0.43142,-0.053346,-0.49193,0.81254,-0.065619,6.5821,6.6587
1.08,0.093162,-0.41537,-0.054613,-0.48241,0.79262,-0.061022,6.5843,6.6598
1.1,0.083611,-0.39971,-0.055788,-0.47266,0.77274,-0.056491,6.5876,6.662
1.12,0.074257,-0.38446,-0.056873,-0.46272,0.75292,-0.05203,6.592,6.6652
1.14,0.065104,-0.3696,-0.05787,-0.45258,0.73319,-0.047639,6.5973,6.6693
1.16,0.056155,-0.35513,-0.058779,-0.44227,0.71358,-0.04332,6.6036,6.6743
1.18,0.047414,-0.34105,-0.059603,-0.43179,0.69411,-0.039075,6.6106,6.6801
1.2,0.038884,-0.32736,-0.060343,-0.42117,0.6748,-0.034906,6.6185,6.6867
1.22,0.030568,-0.31406,-0.061,-0.41041,0.65568,-0.030814,6.627,6.6939
1.24,0.022469,-0.30113,-0.061577,-0.39953,0.63676,-0.0268,6.6362,6.7018
1.26,0.014588,-0.28858,-0.062073,-0.38854,0.61806,-0.022866,6.646,6.7102
1.28,0.0069278,-0.27641,-0.062492,-0.37746,0.59959,-0.019013,6.6563,6.7192
1.3,-0.00050975,-0.2646,-0.062835,-0.36629,0.58138,-0.015241,6.6671,6.7286
1.32,-0.0077232,-0.25315,-0.063102,-0.35505,0.56344,-0.011553,6.6783,6.7384
1.34,-0.014711,-0.24206,-0.063298,-0.34375,0.54577,-0.0079494,6.6899,6.7486
1.36,-0.021473,-0.23132,-0.063421,-0.3324,0.52839,-0.0044309,6.7019,6.7591
1.38,-0.028007,-0.22092,-0.063476,-0.32102,0.51131,-0.00099853,6.7141,6.7699
1.4,-0.034313,-0.21086,-0.063462,-0.30962,0.49453,0.0023467,6.7266,6.7809
1.42,-0.040392,-0.20113,-0.063383,-0.2982,0.47807,0.0056038,6.7393,6.7921
1.44,-0.046241,-0.19173,-0.063239,-0.28679,0.46193,0.0087722,6.7522,6.8035
1.46,-0.051863,-0.18265,-0.063033,-0.27538,0.44611,0.011851,6.7653,6.8151
1.48,-0.057257,-0.17389,-0.062766,-0.264,0.43063,0.01484,6.7784,6.8267
1.5,-0.062423,-0.16543,-0.06244,-0.25265,0.41547,0.017737,6.7917,6.8385
1.52,-0.067363,-0.15726,-0.062057,-0.24134,0.40066,0.020543,6.805,6.8503
1.54,-0.072077,-0.1494,-0.061619,-0.23009,0.38618,0.023258,6.8184,6.8621
1.56,-0.076567,-0.14181,-0.061128,-0.2189,0.37204,0.025879,6.8318,6.8739
1.58,-0.080834,-0.13451,-0.060585,-0.20779,0.35825,0.028408,6.8451,6.8857
1.6,-0.084879,-0.12748,-0.059992,-0.19675,0.34479,0.030844,6.8584,6.8975
1.62,-0.088704,-0.12072,-0.059352,-0.18582,0.33168,0.033187,6.8717,6.9092
1.64,-0.092312,-0.11421,-0.058666,-0.17498,0.3189,0.035435,6.8849,6.9208
1.66,-0.095704,-0.10796,-0.057936,-0.16425,0.30647,0.037591,6.898,6.9324
1.68,-0.098883,-0.10195,-0.057163,-0.15365,0.29437,0.039652,6.911,6.9438
1.7,-0.10185,-0.096179,-0.05635,-0.14317,0.2826,0.04162,6.9239,6.9552
1.72,-0.10461,-0.090641,-0.055499,-0.13282,0.27117,0.043494,6.9367,6.9663
1.74,-0.10716,-0.085329,-0.054612,-0.12262,0.26006,0.045274,6.9493,6.9774
1.76,-0.10952,-0.080235,-0.053689,-0.11257,0.24928,0.046962,6.9617,6.9883
1.78,-0.11167,-0.075355,-0.052734,-0.10268,0.23881,0.048557,6.974,6.9991
1.8,-0.11362,-0.07068,-0.051748,-0.092947,0.22867,0.050059,6.9861,7.0096
1.82,-0.11539,-0.066205,-0.050733,-0.083389,0.21883,0.05147,6.998,7.02
1.84,-0.11696,-0.061924,-0.04969,-0.074007,0.2093,0.052789,7.0098,7.0303
1.86,-0.11835,-0.05783,-0.048622,-0.064809,0.20008,0.054018,7.0213,7.0403
1.88,-0.11955,-0.053918,-0.04753,-0.055798,0.19115,0.055157,7.0326,7.0501
1.9,-0.12058,-0.050181,-0.046417,-0.046981,0.18251,0.056207,7.0438,7.0598
1.92,-0.12143,-0.046614,-0.045283,-0.038362,0.17416,0.057169,7.0547,7.0692
1.94,-0.12212,-0.043212,-0.044131,-0.029945,0.16609,0.058043,7.0653,7.0785
1.96,-0.12263,-0.039968,-0.042962,-0.021735,0.1583,0.058832,7.0758,7.0875
1.98,-0.12299,-0.036877,-0.041778,-0.013736,0.15077,0.059535,7.086,7.0964
2,-0.12318,-0.033934,-0.040581,-0.0059511,0.14351,0.060155,7.0961,7.105
2.02,-0.12323,-0.031134,-0.039373,0.0016166,0.13651,0.060692,7.1058,7.1134
2.04,-0.12312,-0.028472,-0.038154,0.0089641,0.12975,0.061148,7.1154,7.1217
2.06,-0.12287,-0.025942,-0.036928,0.016089,0.12325,0.061524,7.1247,7.1297
2.08,-0.12248,-0.023539,-0.035694,0.022989,0.11698,0.061821,7.1338,7.1375
2.1,-0.12195,-0.02126,-0.034456,0.029662,0.11095,0.062042,7.1427,7.1451
2.12,-0.12129,-0.019099,-0.033213,0.036106,0.10514,0.062187,7.1513,7.1525
2.14,-0.12051,-0.017052,-0.031969,0.042321,0.099561,0.062259,7.1598,7.1598
2.16,-0.1196,-0.015115,-0.030724,0.048305,0.094194,0.062259,7.1679,7.1668
2.18,-0.11858,-0.013282,-0.029479,0.054057,0.089037,0.062188,7.1759,7.1736
2.2,-0.11744,-0.011551,-0.028237,0.059577,0.084084,0.062049,7.1837,7.1802
2.22,-0.1162,-0.0099171,-0.026998,0.064866,0.079329,0.061843,7.1912,7.1867
2.24,-0.11485,-0.0083762,-0.025764,0.069923,0.074767,0.061573,7.1985,7.1929
2.26,-0.1134,-0.0069246,-0.024536,0.074748,0.070392,0.06124,7.2056,7.199
2.28,-0.11186,-0.0055587,-0.023315,0.079342,0.066198,0.060845,7.2125,7.2049
2.3,-0.11023,-0.0042749,-0.022102,0.083707,0.06218,0.060392,7.2191,7.2106
2.32,-0.10851,-0.0030698,-0.0209,0.087844,0.058332,0.059881,7.2256,7.2162
2.34,-0.10672,-0.00194,-0.019708,0.091753,0.054649,0.059316,7.2318,7.2215
2.36,-0.10485,-0.00088221,-0.018528,0.095436,0.051126,0.058698,7.2379,7.2268
2.38,-0.1029,0.00010661,-0.01736,0.098897,0.047757,0.058029,7.2438,7.2318
2.4,-0.10089,0.0010296,-0.016207,0.10214,0.044538,0.057311,7.2494,7.2367
2.42,-0.098818,0.0018896,-0.015068,0.10516,0.041463,0.056546,7.2549,7.2414
2.44,-0.096686,0.0026894,-0.013946,0.10796,0.038527,0.055737,7.2602,7.246
2.46,-0.094501,0.003432,-0.012839,0.11055,0.035726,0.054885,7.2653,7.2505
2.48,-0.092266,0.0041198,-0.011751,0.11293,0.033055,0.053993,7.2703,7.2547
2.5,-0.089985,0.0047554,-0.01068,0.1151,0.03051,0.053062,7.275,7.2589
2.52,-0.087663,0.0053414,-0.0096284,0.11707,0.028085,0.052095,7.2796,7.2629
2.54,-0.085304,0.00588,-0.0085965,0.11883,0.025777,0.051094,7.284,7.2668
2.56,-0.082911,0.0063736,-0.007585,0.1204,0.023582,0.050062,7.2883,7.2706
2.58,-0.080489,0.0068243,-0.0065944,0.12178,0.021495,0.048999,7.2924,7.2742
2.6,-0.078041,0.0072344,-0.0056253,0.12297,0.019513,0.047908,7.2963,7.2777
2.62,-0.075572,0.0076059,-0.0046783,0.12397,0.017631,0.046791,7.3001,7.2811
2.64,-0.073084,0.0079406,-0.0037539,0.12479,0.015845,0.045651,7.3038,7.2844
2.66,-0.070581,0.0082406,-0.0028525,0.12543,0.014152,0.044489,7.3072,7.2875
2.68,-0.068068,0.0085076,-0.0019745,0.1259,0.012549,0.043307,7.3106,7.2906
2.7,-0.065547,0.0087434,-0.0011204,0.1262,0.011032,0.042107,7.3138,7.2936
2.72,-0.063021,0.0089497,-0.00029039,0.12634,0.0095966,0.040891,7.3169,7.2964
2.74,-0.060494,0.0091281,0.00051514,0.12631,0.0082408,0.039662,7.3199,7.2992
2.76,-0.057969,0.0092801,0.001296,0.12614,0.0069611,0.03842,7.3227,7.3018
2.78,-0.05545,0.0094072,0.0020518,0.12581,0.0057544,0.037167,7.3254,7.3044
2.8,-0.052938,0.0095109,0.0027826,0.12534,0.0046176,0.035907,7.328,7.3069
2.82,-0.050437,0.0095926,0.003488,0.12472,0.0035479,0.034639,7.3305,7.3092
2.84,-0.04795,0.0096535,0.0041681,0.12398,0.0025425,0.033366,7.3328,7.3116
2.86,-0.045479,0.0096949,0.0048226,0.1231,0.0015988,0.032091,7.3351,7.3138
2.88,-0.043027,0.0097181,0.0054517,0.1221,0.000714,0.030813,7.3372,7.3159
2.9,-0.040596,0.009724,0.0060552,0.12097,-0.00011428,0.029535,7.3392,7.318
2.92,-0.038189,0.009714,0.0066331,0.11973,-0.00088852,0.028259,7.3412,7.32
2.94,-0.035808,0.009689,0.0071855,0.11838,-0.0016111,0.026985,7.343,7.3219
2.96,-0.033454,0.0096501,0.0077126,0.11692,-0.0022842,0.025717,7.3448,7.3237
2.98,-0.031131,0.0095981,0.0082143,0.11536,-0.0029102,0.024453,7.3464,7.3255
3,-0.02884,0.0095341,0.0086908,0.11371,-0.003491,0.023198,7.348,7.3272
3.02,-0.026583,0.0094589,0.0091423,0.11197,-0.0040288,0.02195,7.3495,7.3289
3.04,-0.024362,0.0093734,0.0095689,0.11013,-0.0045255,0.020713,7.3509,7.3305
3.06,-0.022179,0.0092783,0.0099709,0.10822,-0.004983,0.019487,7.3522,7.332
3.08,-0.020034,0.0091744,0.010348,0.10623,-0.0054032,0.018273,7.3535,7.3335
3.1,-0.01793,0.0090625,0.010702,0.10417,-0.0057878,0.017072,7.3547,7.3349
3.12,-0.015868,0.0089433,0.011032,0.10204,-0.0061385,0.015886,7.3558,7.3363
3.14,-0.013849,0.0088173,0.011338,0.099851,-0.006457,0.014716,7.3568,7.3376
3.16,-0.011874,0.0086853,0.01162,0.097601,-0.0067448,0.013562,7.3578,7.3388
3.18,-0.0099449,0.0085478,0.01188,0.095298,-0.0070035,0.012425,7.3587,7.34
3.2,-0.0080624,0.0084054,0.012118,0.092946,-0.0072345,0.011307,7.3595,7.3412
3.22,-0.0062273,0.0082587,0.012333,0.09055,-0.0074393,0.010209,7.3603,7.3423
3.24,-0.0044406,0.0081081,0.012526,0.088113,-0.0076192,0.0091299,7.361,7.3434
3.26,-0.002703,0.0079542,0.012698,0.08564,-0.0077755,0.0080719,7.3617,7.3444
3.28,-0.0010152,0.0077973,0.012849,0.083135,-0.0079095,0.0070354,7.3623,7.3454
3.3,0.00062218,0.007638,0.01298,0.080602,-0.0080223,0.0060211,7.3629,7.3464
3.32,0.0022087,0.0074766,0.01309,0.078046,-0.0081152,0.0050296,7.3634,7.3473
3.34,0.0037439,0.0073136,0.013181,0.075469,-0.0081893,0.0040613,7.3639,7.3482
3.36,0.0052273,0.0071492,0.013253,0.072876,-0.0082455,0.0031169,7.3643,7.349
3.38,0.0066588,0.0069839,0.013306,0.070271,-0.0082851,0.0021968,7.3647,7.3498
3.4,0.0080381,0.006818,0.013341,0.067656,-0.0083089,0.0013014,7.3651,7.3506
3.42,0.009365,0.0066517,0.013358,0.065037,-0.0083179,0.00043118,7.3654,7.3513
3.44,0.01064,0.0064854,0.013359,0.062415,-0.008313,-0.00041359,7.3657,7.352
3.46,0.011862,0.0063193,0.013342,0.059795,-0.0082951,-0.0012326,7.3659,7.3527
3.48,0.013031,0.0061537,0.01331,0.05718,-0.0082651,-0.0020256,7.3661,7.3533
3.5,0.014149,0.0059888,0.013261,0.054573,-0.0082237,-0.0027924,7.3663,7.3539
3.52,0.015214,0.0058249,0.013198,0.051976,-0.0081717,-0.0035327,7.3664,7.3545
3.54,0.016228,0.0056621,0.01312,0.049393,-0.0081099,-0.0042465,7.3665,7.3551
3.56,0.01719,0.0055006,0.013028,0.046826,-0.008039,-0.0049336,7.3666,7.3556
3.58,0.018101,0.0053406,0.012923,0.044279,-0.0079597,-0.005594,7.3667,7.3561
3.6,0.018961,0.0051823,0.012805,0.041754,-0.0078725,-0.0062276,7.3667,7.3566
3.62,0.019772,0.0050258,0.012674,0.039253,-0.0077782,-0.0068345,7.3667,7.357
3.64,0.020532,0.0048712,0.012532,0.036778,-0.0076773,-0.0074146,7.3667,7.3575
3.66,0.021243,0.0047187,0.012378,0.034333,-0.0075704,-0.0079682,7.3667,7.3579
3.68,0.021905,0.0045684,0.012213,0.031919,-0.0074581,-0.0084951,7.3666,7.3583
3.7,0.02252,0.0044205,0.012039,0.029538,-0.0073408,-0.0089957,7.3665,7.3586
3.72,0.023087,0.0042749,0.011854,0.027192,-0.007219,-0.00947,7.3665,7.359
3.74,0.023608,0.0041317,0.01166,0.024884,-0.0070933,-0.0099183,7.3664,7.3593
3.76,0.024083,0.0039912,0.011457,0.022614,-0.0069641,-0.010341,7.3662,7.3596
3.78,0.024513,0.0038532,0.011247,0.020385,-0.0068318,-0.010738,7.3661,7.3599
3.8,0.024898,0.0037179,0.011028,0.018199,-0.0066967,-0.011109,7.366,7.3602
3.82,0.025241,0.0035854,0.010802,0.016055,-0.0065594,-0.011456,7.3658,7.3605
3.84,0.025541,0.0034556,0.01057,0.013957,-0.0064202,-0.011777,7.3657,7.3607
3.86,0.025799,0.0033286,0.010332,0.011905,-0.0062793,-0.012075,7.3655,7.3609
3.88,0.026017,0.0032044,0.010087,0.0099002,-0.0061372,-0.012348,7.3653,7.3611
3.9,0.026196,0.0030831,0.0098379,0.0079439,-0.0059942,-0.012598,7.3651,7.3613
3.92,0.026335,0.0029646,0.0095837,0.0060371,-0.0058505,-0.012824,7.3649,7.3615
3.94,0.026438,0.0028491,0.0093252,0.0041807,-0.0057064,-0.013028,7.3647,7.3617
3.96,0.026503,0.0027364,0.0090628,0.0023754,-0.0055622,-0.013209,7.3645,7.3619
3.98,0.026533,0.0026266,0.0087971,0.00062192,-0.0054181,-0.013368,7.3643,7.362
4,0.026528,0.0025196,0.0085283,-0.001079,-0.0052744,-0.013506,7.3641,7.3622
4.02,0.02649,0.0024156,0.008257,-0.0027269,-0.0051313,-0.013623,7.3639,7.3623
4.04,0.02642,0.0023144,0.0079836,-0.0043214,-0.0049889,-0.013719,7.3637,7.3624
4.06,0.026318,0.002216,0.0077085,-0.0058619,-0.0048475,-0.013795,7.3634,7.3625
4.08,0.026185,0.0021205,0.007432,-0.0073483,-0.0047072,-0.013852,7.3632,7.3626
4.1,0.026024,0.0020277,0.0071546,-0.0087803,-0.0045683,-0.013889,7.363,7.3627
4.12,0.025835,0.0019377,0.0068766,-0.010158,-0.0044308,-0.013908,7.3628,7.3628
4.14,0.025618,0.0018505,0.0065984,-0.011481,-0.0042949,-0.013909,7.3625,7.3628
4.16,0.025376,0.0017659,0.0063204,-0.012749,-0.0041607,-0.013893,7.3623,7.3629
4.18,0.025109,0.001684,0.0060429,-0.013962,-0.0040283,-0.01386,7.3621,7.3629
4.2,0.024818,0.0016048,0.0057662,-0.015122,-0.0038979,-0.01381,7.3619,7.363
4.22,0.024504,0.0015281,0.0054906,-0.016227,-0.0037695,-0.013745,7.3617,7.363
4.24,0.024169,0.001454,0.0052165,-0.017278,-0.0036433,-0.013665,7.3615,7.363
4.26,0.023813,0.0013823,0.0049442,-0.018275,-0.0035193,-0.013569,7.3612,7.3631
4.28,0.023438,0.0013132,0.0046739,-0.019219,-0.0033975,-0.01346,7.361,7.3631
4.3,0.023045,0.0012464,0.0044059,-0.02011,-0.0032781,-0.013337,7.3608,7.3631
4.32,0.022634,0.001182,0.0041405,-0.020949,-0.0031611,-0.013201,7.3606,7.3631
4.34,0.022207,0.0011199,0.003878,-0.021736,-0.0030465,-0.013053,7.3604,7.3631
4.36,0.021765,0.0010601,0.0036185,-0.022472,-0.0029343,-0.012893,7.3602,7.3631
4.38,0.021309,0.0010025,0.0033624,-0.023157,-0.0028247,-0.012722,7.36,7.3631
4.4,0.020839,0.00094711,0.0031098,-0.023793,-0.0027176,-0.012539,7.3598,7.3631
4.42,0.020357,0.00089381,0.0028609,-0.024378,-0.0026131,-0.012347,7.3597,7.363
4.44,0.019864,0.00084256,0.002616,-0.024916,-0.0025111,-0.012145,7.3595,7.363
4.46,0.019361,0.00079334,0.0023752,-0.025406,-0.0024117,-0.011934,7.3593,7.363
4.48,0.018848,0.00074607,0.0021387,-0.025849,-0.0023149,-0.011714,7.3592,7.3629
4.5,0.018327,0.00070071,0.0019067,-0.026246,-0.0022207,-0.011487,7.359,7.3629
4.52,0.017799,0.00065722,0.0016793,-0.026598,-0.002129,-0.011251,7.3588,7.3629
4.54,0.017264,0.00061553,0.0014567,-0.026905,-0.0020399,-0.011009,7.3587,7.3628
4.56,0.016723,0.00057559,0.001239,-0.02717,-0.0019533,-0.010761,7.3585,7.3628
4.58,0.016177,0.00053737,0.0010264,-0.027392,-0.0018693,-0.010506,7.3584,7.3627
4.6,0.015627,0.0005008,0.00081883,-0.027573,-0.0017877,-0.010246,7.3583,7.3627
4.62,0.015075,0.00046583,0.00061656,-0.027714,-0.0017087,-0.0099809,7.3581,7.3626
4.64,0.014519,0.00043243,0.00041964,-0.027815,-0.001632,-0.0097113,7.358,7.3626
4.66,0.013962,0.00040053,0.00022815,-0.027879,-0.0015578,-0.0094377,7.3579,7.3625
4.68,0.013404,0.00037009,4.2169e-05,-0.027905,-0.001486,-0.0091606,7.3578,7.3624
4.7,0.012846,0.00034106,-0.00013824,-0.027896,-0.0014166,-0.0088804,7.3577,7.3624
4.72,0.012289,0.0003134,-0.00031302,-0.027851,-0.0013494,-0.0085975,7.3576,7.3623
4.74,0.011732,0.00028706,-0.00048212,-0.027773,-0.0012846,-0.0083124,7.3575,7.3622
4.76,0.011178,0.000262,-0.0006455,-0.027663,-0.0012219,-0.0080255,7.3574,7.3622
4.78,0.010626,0.00023816,-0.00080313,-0.02752,-0.0011615,-0.0077372,7.3573,7.3621
4.8,0.010077,0.00021552,-0.00095498,-0.027348,-0.0011032,-0.007448,7.3572,7.362
4.82,0.0095324,0.00019402,-0.001101,-0.027146,-0.001047,-0.0071581,7.3571,7.362
4.84,0.0089917,0.00017362,-0.0012413,-0.026916,-0.00099282,-0.006868,7.357,7.3619
4.86,0.0084559,0.00015428,-0.0013758,-0.026659,-0.00094069,-0.0065781,7.357,7.3618
4.88,0.0079255,0.00013597,-0.0015044,-0.026376,-0.00089053,-0.0062887,7.3569,7.3617
4.9,0.007401,0.00011864,-0.0016273,-0.026069,-0.00084228,-0.0060002,7.3569,7.3616
4.92,0.0068829,0.00010226,-0.0017445,-0.025738,-0.00079589,-0.0057129,7.3568,7.3616
4.94,0.0063717,8.679e-05,-0.0018559,-0.025385,-0.00075133,-0.0054271,7.3568,7.3615
4.96,0.0058677,7.2192e-05,-0.0019616,-0.02501,-0.00070855,-0.0051431,7.3567,7.3614
4.98,0.0053714,5.8431e-05,-0.0020616,-0.024615,-0.00066748,-0.0048613,7.3567,7.3613
5,0.0048832,4.5476e-05,-0.002156,-0.024201,-0.00062809,-0.0045818,7.3566,7.3612
5.02,0.0044035,3.3291e-05,-0.0022449,-0.023769,-0.00059034,-0.0043051,7.3566,7.3612
5.04,0.0039325,2.1847e-05,-0.0023283,-0.02332,-0.00055416,-0.0040314,7.3566,7.3611
5.06,0.0034708,1.111e-05,-0.0024062,-0.022856,-0.00051951,-0.0037608,7.3565,7.361
5.08,0.0030184,1.0514e-06,-0.0024787,-0.022376,-0.00048635,-0.0034938,7.3565,7.3609
5.1,0.0025758,-8.3584e-06,-0.002546,-0.021883,-0.00045463,-0.0032304,7.3565,7.3608
5.12,0.0021432,-1.7148e-05,-0.002608,-0.021378,-0.00042431,-0.0029709,7.3565,7.3607
5.14,0.0017208,-2.5344e-05,-0.0026649,-0.02086,-0.00039533,-0.0027155,7.3565,7.3607
5.16,0.0013088,-3.2974e-05,-0.0027167,-0.020332,-0.00036766,-0.0024645,7.3565,7.3606
5.18,0.00090754,-4.0063e-05,-0.0027635,-0.019794,-0.00034124,-0.0022179,7.3565,7.3605
5.2,0.0005171,-4.6636e-05,-0.0028054,-0.019248,-0.00031605,-0.001976,7.3565,7.3604
5.22,0.00013768,-5.2716e-05,-0.0028426,-0.018694,-0.00029203,-0.001739,7.3565,7.3603
5.24,-0.0002306,-5.8328e-05,-0.002875,-0.018133,-0.00026915,-0.0015069,7.3565,7.3602
5.26,-0.00058759,-6.3493e-05,-0.0029029,-0.017566,-0.00024736,-0.0012799,7.3565,7.3602
5.28,-0.00093319,-6.8233e-05,-0.0029263,-0.016994,-0.00022662,-0.0010582,7.3565,7.3601
