time (s),q1,q2,q3,q1dot,d2dot,q3dot,fL,fR,
0,1.835,2.721,0.229,0.34,0.459,-0.34,7.3575,7.3575
0.02,1.8414,2.7301,0.2222,0.29611,0.45403,-0.34,7.3575,7.3575
0.04,1.8469,2.7392,0.2154,0.25353,0.44935,-0.34,7.3575,7.3575
0.06,1.8515,2.7481,0.2086,0.21224,0.44496,-0.34,7.3575,7.3575
0.08,1.8554,2.757,0.2018,0.17226,0.44084,-0.34,7.3575,7.3575
0.1,1.8584,2.7657,0.195,0.13359,0.43699,-0.34,7.3575,7.3575
0.12,1.8607,2.7744,0.1882,0.09623,0.4334,-0.34,7.3575,7.3575
0.14,1.8623,2.7831,0.1814,0.060178,0.43006,-0.34,7.3575,7.3575
0.16,1.8631,2.7916,0.1746,0.025439,0.42696,-0.34,7.3575,7.3575
0.18,1.8633,2.8002,0.1678,-0.0079866,0.42409,-0.34,7.3575,7.3575
0.2,1.8628,2.8086,0.161,-0.040097,0.42144,-0.34,7.3575,7.3575
0.22,1.8617,2.817,0.1542,-0.07089,0.41901,-0.34,7.3575,7.3575
0.24,1.86,2.8254,0.1474,-0.10036,0.41679,-0.34,7.3575,7.3575
0.26,1.8577,2.8337,0.1406,-0.12852,0.41475,-0.34,7.3575,7.3575
0.28,1.8549,2.842,0.1338,-0.15535,0.41291,-0.34,7.3575,7.3575
0.3,1.8515,2.8502,0.127,-0.18087,0.41124,-0.34,7.3575,7.3575
0.32,1.8476,2.8584,0.1202,-0.20505,0.40975,-0.34,7.3575,7.3575
0.34,1.8433,2.8666,0.1134,-0.22792,0.40841,-0.34,7.3575,7.3575
0.36,1.8385,2.8748,0.1066,-0.24946,0.40722,-0.34,7.3575,7.3575
0.38,1.8333,2.8829,0.0998,-0.26967,0.40618,-0.34,7.3575,7.3575
0.4,1.8277,2.891,0.093,-0.28855,0.40527,-0.34,7.3575,7.3575
0.42,1.8218,2.8991,0.0862,-0.30611,0.40448,-0.34,7.3575,7.3575
0.44,1.8155,2.9072,0.0794,-0.32234,0.40381,-0.34,7.3575,7.3575
0.46,1.8089,2.9153,0.0726,-0.33723,0.40324,-0.34,7.3575,7.3575
0.48,1.802,2.9233,0.0658,-0.3508,0.40277,-0.34,7.3575,7.3575
0.5,1.7949,2.9314,0.059,-0.36303,0.40239,-0.34,7.3575,7.3575
0.52,1.7875,2.9394,0.0522,-0.37394,0.40209,-0.34,7.3575,7.3575
0.54,1.7799,2.9474,0.0454,-0.38351,0.40185,-0.34,7.3575,7.3575
0.56,1.7722,2.9555,0.0386,-0.39175,0.40168,-0.34,7.3575,7.3575
0.58,1.7643,2.9635,0.0318,-0.39865,0.40156,-0.34,7.3575,7.3575
0.6,1.7562,2.9715,0.025,-0.40422,0.40148,-0.34,7.3575,7.3575
0.62,1.7481,2.9796,0.0182,-0.40846,0.40143,-0.34,7.3575,7.3575
0.64,1.7399,2.9876,0.0114,-0.41136,0.40141,-0.34,7.3575,7.3575
0.66,1.7317,2.9956,0.0046,-0.41293,0.4014,-0.34,7.3575,7.3575
0.68,1.7234,3.0037,-0.0022,-0.41317,0.4014,-0.34,7.3575,7.3575
0.7,1.7151,3.0117,-0.009,-0.41207,0.4014,-0.34,7.3575,7.3575
0.72,1.7069,3.0197,-0.0158,-0.40964,0.40138,-0.34,7.3575,7.3575
0.74,1.6988,3.0277,-0.0226,-0.40587,0.40135,-0.34,7.3575,7.3575
0.76,1.6907,3.0358,-0.0294,-0.40077,0.40128,-0.34,7.3575,7.3575
0.78,1.6828,3.0438,-0.0362,-0.39434,0.40117,-0.34,7.3575,7.3575
0.8,1.6749,3.0518,-0.043,-0.38657,0.40102,-0.34,7.3575,7.3575
0.82,1.6673,3.0598,-0.0498,-0.37747,0.40081,-0.34,7.3575,7.3575
0.84,1.6598,3.0678,-0.0566,-0.36703,0.40053,-0.34,7.3575,7.3575
0.86,1.6526,3.0759,-0.0634,-0.35527,0.40018,-0.34,7.3575,7.3575
0.88,1.6456,3.0839,-0.0702,-0.34217,0.39974,-0.34,7.3575,7.3575
0.9,1.6389,3.0918,-0.077,-0.32775,0.39921,-0.34,7.3575,7.3575
0.92,1.6325,3.0998,-0.0838,-0.31199,0.39857,-0.34,7.3575,7.3575
0.94,1.6265,3.1078,-0.0906,-0.2949,0.39783,-0.34,7.3575,7.3575
0.96,1.6208,3.1157,-0.0974,-0.27649,0.39696,-0.34,7.3575,7.3575
0.98,1.6154,3.1237,-0.1042,-0.25674,0.39596,-0.34,7.3575,7.3575
1,1.6105,3.1316,-0.111,-0.23567,0.39483,-0.34,7.3575,7.3575
1.02,1.606,3.1395,-0.1178,-0.21328,0.39355,-0.34,7.3575,7.3575
1.04,1.602,3.1473,-0.1246,-0.18955,0.39211,-0.34,7.3575,7.3575
1.06,1.5984,3.1551,-0.1314,-0.16451,0.3905,-0.34,7.3575,7.3575
1.08,1.5954,3.1629,-0.1382,-0.13814,0.38872,-0.34,7.3575,7.3575
1.1,1.5929,3.1707,-0.145,-0.11045,0.38676,-0.34,7.3575,7.3575
1.12,1.591,3.1784,-0.1518,-0.081443,0.3846,-0.34,7.3575,7.3575
1.14,1.5897,3.1861,-0.1586,-0.051115,0.38224,-0.34,7.3575,7.3575
1.16,1.589,3.1937,-0.1654,-0.01947,0.37967,-0.34,7.3575,7.3575
1.18,1.5889,3.2013,-0.1722,0.013492,0.37688,-0.34,7.3575,7.3575
1.2,1.5895,3.2088,-0.179,0.047767,0.37387,-0.34,7.3575,7.3575
1.22,1.5908,3.2162,-0.1858,0.083356,0.37061,-0.34,7.3575,7.3575
1.24,1.5929,3.2236,-0.1926,0.12026,0.36711,-0.34,7.3575,7.3575
1.26,1.5956,3.2309,-0.1994,0.15847,0.36335,-0.34,7.3575,7.3575
1.28,1.5992,3.2381,-0.2062,0.19798,0.35933,-0.34,7.3575,7.3575
1.3,1.6036,3.2453,-0.213,0.23881,0.35504,-0.34,7.3575,7.3575
1.32,1.6088,3.2523,-0.2198,0.28093,0.35046,-0.34,7.3575,7.3575
1.34,1.6148,3.2593,-0.2266,0.32436,0.34559,-0.34,7.3575,7.3575
1.36,1.6217,3.2661,-0.2334,0.36909,0.34043,-0.34,7.3575,7.3575
1.38,1.6296,3.2729,-0.2402,0.41512,0.33495,-0.34,7.3575,7.3575
1.4,1.6384,3.2795,-0.247,0.46244,0.32916,-0.34,7.3575,7.3575
1.42,1.6481,3.2861,-0.2538,0.51106,0.32304,-0.34,7.3575,7.3575
1.44,1.6588,3.2925,-0.2606,0.56097,0.31658,-0.34,7.3575,7.3575
1.46,1.6705,3.2987,-0.2674,0.61216,0.30979,-0.34,7.3575,7.3575
1.48,1.6833,3.3048,-0.2742,0.66465,0.30264,-0.34,7.3575,7.3575
1.5,1.6971,3.3108,-0.281,0.71841,0.29512,-0.34,7.3575,7.3575
1.52,1.712,3.3166,-0.2878,0.77346,0.28724,-0.34,7.3575,7.3575
1.54,1.7281,3.3223,-0.2946,0.82979,0.27898,-0.34,7.3575,7.3575
1.56,1.7452,3.3278,-0.3014,0.8874,0.27033,-0.34,7.3575,7.3575
1.58,1.7636,3.3331,-0.3082,0.94628,0.26129,-0.34,7.3575,7.3575
1.6,1.7831,3.3383,-0.315,1.0064,0.25184,-0.34,7.3575,7.3575
1.62,1.8038,3.3432,-0.3218,1.0679,0.24198,-0.34,7.3575,7.3575
1.64,1.8258,3.3479,-0.3286,1.1305,0.2317,-0.34,7.3575,7.3575
1.66,1.8491,3.3525,-0.3354,1.1945,0.22098,-0.34,7.3575,7.3575
1.68,1.8736,3.3568,-0.3422,1.2597,0.20983,-0.34,7.3575,7.3575
1.7,1.8995,3.3608,-0.349,1.3262,0.19823,-0.34,7.3575,7.3575
1.72,1.9267,3.3647,-0.3558,1.3939,0.18617,-0.34,7.3575,7.3575
1.74,1.9552,3.3683,-0.3626,1.4628,0.17365,-0.34,7.3575,7.3575
1.76,1.9852,3.3716,-0.3694,1.5331,0.16065,-0.34,7.3575,7.3575
1.78,2.0166,3.3747,-0.3762,1.6045,0.14718,-0.34,7.3575,7.3575
1.8,2.0494,3.3775,-0.383,1.6772,0.13321,-0.34,7.3575,7.3575
1.82,2.0837,3.38,-0.3898,1.7512,0.11874,-0.34,7.3575,7.3575
1.84,2.1194,3.3823,-0.3966,1.8263,0.10377,-0.34,7.3575,7.3575
1.86,2.1567,3.3842,-0.4034,1.9027,0.088281,-0.34,7.3575,7.3575
1.88,2.1956,3.3858,-0.4102,1.9804,0.072269,-0.34,7.3575,7.3575
1.9,2.2359,3.3871,-0.417,2.0592,0.055725,-0.34,7.3575,7.3575
1.92,2.2779,3.388,-0.4238,2.1393,0.038641,-0.34,7.3575,7.3575
1.94,2.3215,3.3886,-0.4306,2.2206,0.021008,-0.34,7.3575,7.3575
1.96,2.3668,3.3889,-0.4374,2.3031,0.0028182,-0.34,7.3575,7.3575
1.98,2.4137,3.3887,-0.4442,2.3868,-0.015937,-0.34,7.3575,7.3575
2,2.4622,3.3882,-0.451,2.4717,-0.035265,-0.34,7.3575,7.3575
2.02,2.5125,3.3873,-0.4578,2.5578,-0.055175,-0.34,7.3575,7.3575
2.04,2.5646,3.386,-0.4646,2.6451,-0.075674,-0.34,7.3575,7.3575
2.06,2.6184,3.3843,-0.4714,2.7337,-0.096772,-0.34,7.3575,7.3575
2.08,2.6739,3.3821,-0.4782,2.8233,-0.11847,-0.34,7.3575,7.3575
2.1,2.7313,3.3795,-0.485,2.9142,-0.14079,-0.34,7.3575,7.3575
2.12,2.7905,3.3765,-0.4918,3.0063,-0.16373,-0.34,7.3575,7.3575
2.14,2.8516,3.373,-0.4986,3.0995,-0.1873,-0.34,7.3575,7.3575
2.16,2.9145,3.369,-0.5054,3.1939,-0.21151,-0.34,7.3575,7.3575
2.18,2.9793,3.3645,-0.5122,3.2895,-0.23636,-0.34,7.3575,7.3575
2.2,3.0461,3.3595,-0.519,3.3862,-0.26187,-0.34,7.3575,7.3575
2.22,3.1148,3.354,-0.5258,3.4841,-0.28804,-0.34,7.3575,7.3575
2.24,3.1854,3.348,-0.5326,3.5832,-0.31487,-0.34,7.3575,7.3575
2.26,3.2581,3.3414,-0.5394,3.6834,-0.34239,-0.34,7.3575,7.3575
2.28,3.3328,3.3343,-0.5462,3.7847,-0.37059,-0.34,7.3575,7.3575
2.3,3.4095,3.3266,-0.553,3.8872,-0.39948,-0.34,7.3575,7.3575
2.32,3.4883,3.3183,-0.5598,3.9908,-0.42908,-0.34,7.3575,7.3575
2.34,3.5691,3.3094,-0.5666,4.0956,-0.45938,-0.34,7.3575,7.3575
2.36,3.6521,3.2999,-0.5734,4.2015,-0.4904,-0.34,7.3575,7.3575
2.38,3.7372,3.2898,-0.5802,4.3085,-0.52215,-0.34,7.3575,7.3575
2.4,3.8245,3.2791,-0.587,4.4166,-0.55462,-0.34,7.3575,7.3575
2.42,3.9139,3.2676,-0.5938,4.5258,-0.58783,-0.34,7.3575,7.3575
2.44,4.0055,3.2555,-0.6006,4.6361,-0.62179,-0.34,7.3575,7.3575
2.46,4.0993,3.2428,-0.6074,4.7476,-0.65651,-0.34,7.3575,7.3575
2.48,4.1954,3.2293,-0.6142,4.8601,-0.69198,-0.34,7.3575,7.3575
2.5,4.2937,3.2151,-0.621,4.9737,-0.72823,-0.34,7.3575,7.3575
2.52,4.3944,3.2001,-0.6278,5.0884,-0.76525,-0.34,7.3575,7.3575
2.54,4.4973,3.1845,-0.6346,5.2042,-0.80305,-0.34,7.3575,7.3575
2.56,4.6025,3.168,-0.6414,5.321,-0.84165,-0.34,7.3575,7.3575
2.58,4.7101,3.1508,-0.6482,5.439,-0.88104,-0.34,7.3575,7.3575
2.6,4.8201,3.1328,-0.655,5.5579,-0.92124,-0.34,7.3575,7.3575
2.62,4.9325,3.1139,-0.6618,5.678,-0.96225,-0.34,7.3575,7.3575
2.64,5.0472,3.0943,-0.6686,5.7991,-1.0041,-0.34,7.3575,7.3575
2.66,5.1644,3.0738,-0.6754,5.9212,-1.0467,-0.34,7.3575,7.3575
2.68,5.2841,3.0524,-0.6822,6.0444,-1.0902,-0.34,7.3575,7.3575
2.7,5.4062,3.0301,-0.689,6.1686,-1.1346,-0.34,7.3575,7.3575
2.72,5.5308,3.007,-0.6958,6.2939,-1.1797,-0.34,7.3575,7.3575
2.74,5.658,2.9829,-0.7026,6.4202,-1.2258,-0.34,7.3575,7.3575
2.76,5.7877,2.958,-0.7094,6.5475,-1.2727,-0.34,7.3575,7.3575
2.78,5.9199,2.932,-0.7162,6.6758,-1.3205,-0.34,7.3575,7.3575
2.8,6.0547,2.9051,-0.723,6.8051,-1.3691,-0.34,7.3575,7.3575
2.82,6.1921,2.8773,-0.7298,6.9354,-1.4186,-0.34,7.3575,7.3575
2.84,6.3321,2.8484,-0.7366,7.0667,-1.469,-0.34,7.3575,7.3575
2.86,6.4748,2.8185,-0.7434,7.199,-1.5204,-0.34,7.3575,7.3575
2.88,6.6201,2.7876,-0.7502,7.3323,-1.5726,-0.34,7.3575,7.3575
2.9,6.7681,2.7556,-0.757,7.4665,-1.6257,-0.34,7.3575,7.3575
2.92,6.9187,2.7225,-0.7638,7.6017,-1.6797,-0.34,7.3575,7.3575
2.94,7.0721,2.6884,-0.7706,7.7379,-1.7347,-0.34,7.3575,7.3575
2.96,7.2283,2.6531,-0.7774,7.8751,-1.7906,-0.34,7.3575,7.3575
2.98,7.3871,2.6168,-0.7842,8.0132,-1.8474,-0.34,7.3575,7.3575
3,7.5488,2.5792,-0.791,8.1522,-1.9052,-0.34,7.3575,7.3575
3.02,7.7132,2.5406,-0.7978,8.2922,-1.9639,-0.34,7.3575,7.3575
3.04,7.8805,2.5007,-0.8046,8.4331,-2.0236,-0.34,7.3575,7.3575
3.06,8.0506,2.4596,-0.8114,8.5749,-2.0842,-0.34,7.3575,7.3575
3.08,8.2235,2.4173,-0.8182,8.7177,-2.1458,-0.34,7.3575,7.3575
3.1,8.3993,2.3738,-0.825,8.8613,-2.2084,-0.34,7.3575,7.3575
3.12,8.578,2.329,-0.8318,9.0059,-2.272,-0.34,7.3575,7.3575
3.14,8.7595,2.2829,-0.8386,9.1514,-2.3365,-0.34,7.3575,7.3575
3.16,8.944,2.2355,-0.8454,9.2977,-2.402,-0.34,7.3575,7.3575
3.18,9.1314,2.1868,-0.8522,9.445,-2.4686,-0.34,7.3575,7.3575
3.2,9.3218,2.1367,-0.859,9.5931,-2.5361,-0.34,7.3575,7.3575
3.22,9.5152,2.0853,-0.8658,9.7421,-2.6047,-0.34,7.3575,7.3575
3.24,9.7115,2.0325,-0.8726,9.892,-2.6742,-0.34,7.3575,7.3575
3.26,9.9109,1.9784,-0.8794,10.043,-2.7448,-0.34,7.3575,7.3575
3.28,10.113,1.9227,-0.8862,10.194,-2.8164,-0.34,7.3575,7.3575
3.3,10.319,1.8657,-0.893,10.347,-2.8891,-0.34,7.3575,7.3575
3.32,10.527,1.8072,-0.8998,10.5,-2.9628,-0.34,7.3575,7.3575
3.34,10.739,1.7472,-0.9066,10.654,-3.0375,-0.34,7.3575,7.3575
3.36,10.953,1.6857,-0.9134,10.809,-3.1133,-0.34,7.3575,7.3575
3.38,11.171,1.6226,-0.9202,10.965,-3.1901,-0.34,7.3575,7.3575
3.4,11.392,1.5581,-0.927,11.121,-3.268,-0.34,7.3575,7.3575
3.42,11.616,1.4919,-0.9338,11.278,-3.347,-0.34,7.3575,7.3575
3.44,11.843,1.4242,-0.9406,11.437,-3.427,-0.34,7.3575,7.3575
3.46,12.073,1.3548,-0.9474,11.595,-3.5082,-0.34,7.3575,7.3575
3.48,12.307,1.2838,-0.9542,11.755,-3.5904,-0.34,7.3575,7.3575
3.5,12.544,1.2112,-0.961,11.916,-3.6737,-0.34,7.3575,7.3575
3.52,12.783,1.1369,-0.9678,12.077,-3.758,-0.34,7.3575,7.3575
3.54,13.027,1.0609,-0.9746,12.239,-3.8435,-0.34,7.3575,7.3575
3.56,13.273,0.98314,-0.9814,12.402,-3.9301,-0.34,7.3575,7.3575
3.58,13.523,0.90366,-0.9882,12.565,-4.0178,-0.34,7.3575,7.3575
3.6,13.776,0.82242,-0.995,12.729,-4.1066,-0.34,7.3575,7.3575
3.62,14.032,0.73939,-1.0018,12.894,-4.1965,-0.34,7.3575,7.3575
3.64,14.291,0.65455,-1.0086,13.06,-4.2876,-0.34,7.3575,7.3575
3.66,14.554,0.56787,-1.0154,13.226,-4.3798,-0.34,7.3575,7.3575
3.68,14.82,0.47935,-1.0222,13.393,-4.4731,-0.34,7.3575,7.3575
3.7,15.09,0.38894,-1.029,13.561,-4.5675,-0.34,7.3575,7.3575
3.72,15.363,0.29664,-1.0358,13.729,-4.6631,-0.34,7.3575,7.3575
3.74,15.639,0.20241,-1.0426,13.899,-4.7599,-0.34,7.3575,7.3575
3.76,15.919,0.10624,-1.0494,14.068,-4.8578,-0.34,7.3575,7.3575
3.78,16.202,0.0080914,-1.0562,14.239,-4.9568,-0.34,7.3575,7.3575
3.8,16.488,-0.092045,-1.063,14.41,-5.0571,-0.34,7.3575,7.3575
3.82,16.778,-0.1942,-1.0698,14.582,-5.1584,-0.34,7.3575,7.3575
3.84,17.072,-0.29839,-1.0766,14.754,-5.261,-0.34,7.3575,7.3575
3.86,17.368,-0.40465,-1.0834,14.927,-5.3647,-0.34,7.3575,7.3575
3.88,17.669,-0.51299,-1.0902,15.101,-5.4696,-0.34,7.3575,7.3575
3.9,17.972,-0.62344,-1.097,15.275,-5.5757,-0.34,7.3575,7.3575
3.92,18.28,-0.73602,-1.1038,15.45,-5.683,-0.34,7.3575,7.3575
3.94,18.59,-0.85076,-1.1106,15.625,-5.7914,-0.34,7.3575,7.3575
3.96,18.905,-0.96769,-1.1174,15.802,-5.9011,-0.34,7.3575,7.3575
3.98,19.223,-1.0868,-1.1242,15.978,-6.012,-0.34,7.3575,7.3575
4,19.544,-1.2082,-1.131,16.155,-6.124,-0.34,7.3575,7.3575
4.02,19.869,-1.3318,-1.1378,16.333,-6.2373,-0.34,7.3575,7.3575
4.04,20.197,-1.4577,-1.1446,16.512,-6.3518,-0.34,7.3575,7.3575
4.06,20.529,-1.5859,-1.1514,16.691,-6.4675,-0.34,7.3575,7.3575
4.08,20.865,-1.7164,-1.1582,16.87,-6.5844,-0.34,7.3575,7.3575
4.1,21.204,-1.8492,-1.165,17.05,-6.7025,-0.34,7.3575,7.3575
4.12,21.547,-1.9845,-1.1718,17.231,-6.8219,-0.34,7.3575,7.3575
4.14,21.893,-2.1221,-1.1786,17.412,-6.9425,-0.34,7.3575,7.3575
4.16,22.243,-2.2622,-1.1854,17.593,-7.0643,-0.34,7.3575,7.3575
4.18,22.597,-2.4047,-1.1922,17.775,-7.1874,-0.34,7.3575,7.3575
4.2,22.954,-2.5497,-1.199,17.958,-7.3117,-0.34,7.3575,7.3575
4.22,23.315,-2.6972,-1.2058,18.141,-7.4372,-0.34,7.3575,7.3575
4.24,23.68,-2.8472,-1.2126,18.324,-7.564,-0.34,7.3575,7.3575
4.26,24.048,-2.9998,-1.2194,18.508,-7.692,-0.34,7.3575,7.3575
4.28,24.42,-3.1549,-1.2262,18.693,-7.8213,-0.34,7.3575,7.3575
4.3,24.796,-3.3126,-1.233,18.878,-7.9519,-0.34,7.3575,7.3575
4.32,25.175,-3.473,-1.2398,19.063,-8.0837,-0.34,7.3575,7.3575
4.34,25.559,-3.636,-1.2466,19.249,-8.2168,-0.34,7.3575,7.3575
4.36,25.945,-3.8017,-1.2534,19.435,-8.3511,-0.34,7.3575,7.3575
4.38,26.336,-3.97,-1.2602,19.621,-8.4867,-0.34,7.3575,7.3575
4.4,26.73,-4.1411,-1.267,19.808,-8.6236,-0.34,7.3575,7.3575
4.42,27.128,-4.315,-1.2738,19.996,-8.7617,-0.34,7.3575,7.3575
4.44,27.53,-4.4916,-1.2806,20.184,-8.9011,-0.34,7.3575,7.3575
4.46,27.936,-4.671,-1.2874,20.372,-9.0418,-0.34,7.3575,7.3575
4.48,28.345,-4.8533,-1.2942,20.56,-9.1838,-0.34,7.3575,7.3575
4.5,28.758,-5.0384,-1.301,20.749,-9.3271,-0.34,7.3575,7.3575
4.52,29.175,-5.2264,-1.3078,20.939,-9.4716,-0.34,7.3575,7.3575
4.54,29.596,-5.4173,-1.3146,21.128,-9.6175,-0.34,7.3575,7.3575
4.56,30.02,-5.6111,-1.3214,21.318,-9.7646,-0.34,7.3575,7.3575
4.58,30.448,-5.8079,-1.3282,21.509,-9.913,-0.34,7.3575,7.3575
4.6,30.88,-6.0076,-1.335,21.699,-10.063,-0.34,7.3575,7.3575
4.62,31.316,-6.2104,-1.3418,21.89,-10.214,-0.34,7.3575,7.3575
4.64,31.756,-6.4162,-1.3486,22.081,-10.366,-0.34,7.3575,7.3575
4.66,32.2,-6.625,-1.3554,22.273,-10.52,-0.34,7.3575,7.3575
4.68,32.647,-6.837,-1.3622,22.465,-10.675,-0.34,7.3575,7.3575
4.7,33.098,-7.052,-1.369,22.657,-10.831,-0.34,7.3575,7.3575
4.72,33.553,-7.2702,-1.3758,22.849,-10.988,-0.34,7.3575,7.3575
4.74,34.012,-7.4916,-1.3826,23.042,-11.147,-0.34,7.3575,7.3575
4.76,34.475,-7.7161,-1.3894,23.235,-11.307,-0.34,7.3575,7.3575
4.78,34.941,-7.9439,-1.3962,23.428,-11.469,-0.34,7.3575,7.3575
4.8,35.412,-8.1749,-1.403,23.621,-11.632,-0.34,7.3575,7.3575
4.82,35.886,-8.4091,-1.4098,23.815,-11.796,-0.34,7.3575,7.3575
4.84,36.365,-8.6467,-1.4166,24.008,-11.961,-0.34,7.3575,7.3575
4.86,36.847,-8.8876,-1.4234,24.202,-12.128,-0.34,7.3575,7.3575
4.88,37.333,-9.1318,-1.4302,24.396,-12.296,-0.34,7.3575,7.3575
4.9,37.822,-9.3794,-1.437,24.591,-12.465,-0.34,7.3575,7.3575
4.92,38.316,-9.6304,-1.4438,24.785,-12.636,-0.34,7.3575,7.3575
4.94,38.814,-9.8849,-1.4506,24.98,-12.808,-0.34,7.3575,7.3575
4.96,39.315,-10.143,-1.4574,25.175,-12.981,-0.34,7.3575,7.3575
4.98,39.821,-10.404,-1.4642,25.37,-13.156,-0.34,7.3575,7.3575
5,40.33,-10.669,-1.471,25.565,-13.332,-0.34,7.3575,7.3575
5.02,40.844,-10.937,-1.4778,25.76,-13.509,-0.34,7.3575,7.3575
5.04,41.361,-11.209,-1.4846,25.956,-13.688,-0.34,7.3575,7.3575
5.06,41.882,-11.485,-1.4914,26.151,-13.868,-0.34,7.3575,7.3575
5.08,42.407,-11.764,-1.4982,26.347,-14.049,-0.34,7.3575,7.3575
5.1,42.936,-12.047,-1.505,26.543,-14.232,-0.34,7.3575,7.3575
5.12,43.468,-12.333,-1.5118,26.738,-14.416,-0.34,7.3575,7.3575
5.14,44.005,-12.624,-1.5186,26.934,-14.601,-0.34,7.3575,7.3575
5.16,44.546,-12.917,-1.5254,27.13,-14.788,-0.34,7.3575,7.3575
5.18,45.09,-13.215,-1.5322,27.326,-14.976,-0.34,7.3575,7.3575
5.2,45.639,-13.516,-1.539,27.522,-15.165,-0.34,7.3575,7.3575
5.22,46.191,-13.822,-1.5458,27.719,-15.356,-0.34,7.3575,7.3575
5.24,46.748,-14.131,-1.5526,27.915,-15.548,-0.34,7.3575,7.3575
5.26,47.308,-14.444,-1.5594,28.111,-15.741,-0.34,7.3575,7.3575
5.28,47.872,-14.76,-1.5662,28.307,-15.935,-0.34,7.3575,7.3575
5.3,48.44,-15.081,-1.573,28.503,-16.131,-0.34,7.3575,7.3575
5.32,49.012,-15.406,-1.5798,28.699,-16.329,-0.34,7.3575,7.3575
5.34,49.588,-15.734,-1.5866,28.896,-16.527,-0.34,7.3575,7.3575
5.36,50.168,-16.067,-1.5934,29.092,-16.727,-0.34,7.3575,7.3575
5.38,50.752,-16.403,-1.6002,29.288,-16.929,-0.34,7.3575,7.3575
5.4,51.34,-16.744,-1.607,29.484,-17.131,-0.34,7.3575,7.3575
5.42,51.931,-17.089,-1.6138,29.68,-17.335,-0.34,7.3575,7.3575
5.44,52.527,-17.437,-1.6206,29.876,-17.541,-0.34,7.3575,7.3575
5.46,53.126,-17.79,-1.6274,30.072,-17.747,-0.34,7.3575,7.3575
5.48,53.73,-18.147,-1.6342,30.268,-17.955,-0.34,7.3575,7.3575
5.5,54.337,-18.508,-1.641,30.464,-18.164,-0.34,7.3575,7.3575
5.52,54.948,-18.874,-1.6478,30.659,-18.375,-0.34,7.3575,7.3575
5.54,55.563,-19.243,-1.6546,30.855,-18.587,-0.34,7.3575,7.3575
5.56,56.182,-19.617,-1.6614,31.05,-18.8,-0.34,7.3575,7.3575
5.58,56.805,-19.995,-1.6682,31.246,-19.015,-0.34,7.3575,7.3575
5.6,57.432,-20.378,-1.675,31.441,-19.231,-0.34,7.3575,7.3575
5.62,58.063,-20.765,-1.6818,31.636,-19.448,-0.34,7.3575,7.3575
5.64,58.698,-21.156,-1.6886,31.831,-19.667,-0.34,7.3575,7.3575
5.66,59.336,-21.551,-1.6954,32.026,-19.887,-0.34,7.3575,7.3575
5.68,59.979,-21.951,-1.7022,32.22,-20.108,-0.34,7.3575,7.3575
5.7,60.625,-22.356,-1.709,32.415,-20.33,-0.34,7.3575,7.3575
5.72,61.275,-22.764,-1.7158,32.609,-20.554,-0.34,7.3575,7.3575
5.74,61.929,-23.178,-1.7226,32.803,-20.78,-0.34,7.3575,7.3575
5.76,62.587,-23.596,-1.7294,32.997,-21.006,-0.34,7.3575,7.3575
5.78,63.249,-24.018,-1.7362,33.19,-21.234,-0.34,7.3575,7.3575
5.8,63.915,-24.445,-1.743,33.384,-21.463,-0.34,7.3575,7.3575
5.82,64.585,-24.877,-1.7498,33.577,-21.694,-0.34,7.3575,7.3575
5.84,65.258,-25.313,-1.7566,33.77,-21.925,-0.34,7.3575,7.3575
5.86,65.935,-25.754,-1.7634,33.963,-22.158,-0.34,7.3575,7.3575
5.88,66.617,-26.199,-1.7702,34.155,-22.393,-0.34,7.3575,7.3575
5.9,67.302,-26.649,-1.777,34.347,-22.629,-0.34,7.3575,7.3575
5.92,67.99,-27.104,-1.7838,34.539,-22.866,-0.34,7.3575,7.3575
5.94,68.683,-27.564,-1.7906,34.731,-23.104,-0.34,7.3575,7.3575
5.96,69.38,-28.028,-1.7974,34.922,-23.344,-0.34,7.3575,7.3575
5.98,70.08,-28.498,-1.8042,35.113,-23.584,-0.34,7.3575,7.3575
6,70.784,-28.972,-1.811,35.304,-23.827,-0.34,7.3575,7.3575
6.02,71.492,-29.451,-1.8178,35.494,-24.07,-0.34,7.3575,7.3575
6.04,72.204,-29.935,-1.8246,35.684,-24.315,-0.34,7.3575,7.3575
6.06,72.919,-30.423,-1.8314,35.874,-24.561,-0.34,7.3575,7.3575
6.08,73.639,-30.917,-1.8382,36.063,-24.809,-0.34,7.3575,7.3575
6.1,74.362,-31.416,-1.845,36.253,-25.057,-0.34,7.3575,7.3575
6.12,75.089,-31.919,-1.8518,36.441,-25.307,-0.34,7.3575,7.3575
6.14,75.82,-32.428,-1.8586,36.63,-25.558,-0.34,7.3575,7.3575
6.16,76.554,-32.942,-1.8654,36.817,-25.811,-0.34,7.3575,7.3575
6.18,77.292,-33.461,-1.8722,37.005,-26.065,-0.34,7.3575,7.3575
6.2,78.034,-33.984,-1.879,37.192,-26.32,-0.34,7.3575,7.3575
6.22,78.78,-34.513,-1.8858,37.379,-26.576,-0.34,7.3575,7.3575
6.24,79.529,-35.047,-1.8926,37.565,-26.834,-0.34,7.3575,7.3575
6.26,80.283,-35.587,-1.8994,37.751,-27.093,-0.34,7.3575,7.3575
6.28,81.04,-36.131,-1.9062,37.937,-27.353,-0.34,7.3575,7.3575
6.3,81.8,-36.681,-1.913,38.122,-27.614,-0.34,7.3575,7.3575
6.32,82.564,-37.236,-1.9198,38.306,-27.877,-0.34,7.3575,7.3575
6.34,83.332,-37.796,-1.9266,38.49,-28.141,-0.34,7.3575,7.3575
6.36,84.104,-38.361,-1.9334,38.674,-28.406,-0.34,7.3575,7.3575
6.38,84.879,-38.932,-1.9402,38.857,-28.672,-0.34,7.3575,7.3575
6.4,85.658,-39.508,-1.947,39.04,-28.94,-0.34,7.3575,7.3575
